time,position,velocity,current,reference,voltage
0,0.007,0,0,0.002,5.08128340494302
0.01,0.00697780627366592,-0.00610702197134646,0.0710893088021068,0.00206666666666667,1.85818451194828
0.02,0.00686101995358995,-0.0174697228077874,0.0697239301057583,0.00213333333333333,-0.334258976945243
0.03,0.00663114507057135,-0.028107542349955,0.0298599343371336,0.0022,-1.81846571167661
0.04,0.0063091622067549,-0.0357204996562827,-0.0276088848889873,0.00226666666666667,-2.8160728225524
0.05,0.00592846388005261,-0.0398638609012702,-0.0902125452518305,0.00233333333333333,-3.47958301651895
0.06,0.00552207534542298,-0.0409463616461536,-0.150882076369632,0.0024,-3.9138047501448
0.07,0.00511728989211048,-0.0396957111494259,-0.205997251546991,0.00246666666666667,-4.19030335890128
0.08,0.0047335904034711,-0.036828165421942,-0.253887580811928,0.00253333333333333,-4.35899239535502
0.09,0.00438390103853285,-0.0330023255743933,-0.294253845743138,0.0026,-4.45321892642403
0.1,0.0040752278829434,-0.0287021783555862,-0.327304914070085,0.00266666666666667,-4.49706381694232
0.11,0.00381014773200748,-0.0243098206772187,-0.353832343947347,0.00273333333333333,-4.50537510926573
0.12,0.00358862837354298,-0.0200619183839311,-0.374501894909438,0.0028,-4.4903123589758
0.13,0.00340821583118255,-0.0161143886867135,-0.39018937154488,0.00286666666666667,-4.45889737213371
0.14,0.00326502681043135,-0.0125453830688254,-0.401747109511916,0.00293333333333333,-4.41553537084492
0.15,0.00315562199860687,-0.00939436900166966,-0.409773831513327,0.003,-4.36486317378309
0.16,0.00307579569582825,-0.00666256876450412,-0.414901890589286,0.00306666666666667,-4.30915996745883
0.17,0.00302113133301525,-0.00431893177657836,-0.417691159791547,0.00313333333333333,-4.24958992421312
0.18,0.00298805799824004,-0.00233619879054042,-0.418569704000957,0.0032,-4.18755910226726
0.19,0.00297325869750325,-0.00067829013466348,-0.417900775366773,0.00326666666666667,-4.12395550867168
0.2,0.00297358322353319,0.000701299129262644,-0.415990909536852,0.00333333333333333,-4.05912666306175
0.21,0.00298645867459228,0.00184032564122528,-0.413087186996711,0.0034,-3.99348898696161
0.22,0.00300968510961998,0.0027738915974838,-0.409390519212735,0.00346666666666667,-3.92733070252005
0.23,0.00304136777843664,0.00353638476484538,-0.405059340882931,0.00353333333333333,-3.86077971309038
0.24,0.00307993488784613,0.00415605788273273,-0.40022536995335,0.0036,-3.7939708981533
0.25,0.00312406850818028,0.00465739716546506,-0.394996013703344,0.00366666666666667,-3.72700160259933
0.26,0.00317273560513547,0.00506207239429675,-0.389446174258232,0.00373333333333333,-3.65989440199478
0.27,0.00322506299350042,0.00538797723437917,-0.383640598574304,0.0038,-3.5926822301182
0.28,0.00328030793287453,0.00564929106795211,-0.377638131191228,0.00386666666666667,-3.5254198308705
0.29,0.00333782419270877,0.00585877020643846,-0.371488454078787,0.00393333333333333,-3.45814400361836
0.3,0.00339720672387029,0.00602630670426223,-0.36521549894591,0.004,-3.3908396660612
0.31,0.00345814661733624,0.00615934985207713,-0.358837758836585,0.00406666666666667,-3.32350090114097
0.32,0.00352034188980498,0.00626457212647199,-0.352375654273745,0.00413333333333333,-3.25613343509558
0.33,0.00358349748369608,0.00634786918997084,-0.345851533259269,0.0042,-3.18875463745893
0.34,0.00364733501813767,0.00641436444753214,-0.339288165129033,0.00426666666666667,-3.12138923799772
0.35,0.00371172315173544,0.00646772434386045,-0.332691482224827,0.00433333333333333,-3.05402571075106
0.36,0.00377659388809647,0.00650993546616344,-0.32606421620997,0.0044,-2.98665641515994
0.37,0.00384186765387617,0.00654288060056318,-0.319411252414679,0.00446666666666667,-2.91928103715899
0.38,0.0039074593711167,0.00656848516950234,-0.312738137668099,0.00453333333333333,-2.85190129487184
0.39,0.00397327845724702,0.0065887172317442,-0.306051080298303,0.0046,-2.78452093861116
0.4,0.00403924513937611,0.00660531365808559,-0.299355531502325,0.00466666666666667,-2.71714326876567
0.41,0.00410534604908114,0.00661872215366937,-0.292651823164326,0.00473333333333333,-2.64976526355693
0.42,0.00417157106179076,0.0066292159805826,-0.285940454591069,0.0048,-2.58238602499075
0.43,0.00423790391925879,0.006637188912529,-0.279222388373953,0.00486666666666667,-2.51500533801104
0.44,0.00430432293291034,0.00664314608677171,-0.272498979188919,0.00493333333333333,-2.44762350820969
0.45,0.00437080098384181,0.00664770400413327,-0.265771973796449,0.005,-2.38024136182641
0.46,0.00443730619449046,0.0066515771067936,-0.259043460610735,0.00506666666666667,-2.31286019270505
0.47,0.00450382945567276,0.00665500072669159,-0.252313915485787,0.00513333333333333,-2.24547981864029
0.48,0.00457037843597298,0.00665781230802807,-0.245582812802785,0.0052,-2.17809936432634
0.49,0.00463695508970989,0.00665996425824168,-0.238850050393211,0.00526666666666667,-2.11071847231771
0.5,0.00470355846765489,0.00666147868178982,-0.232115693062497,0.00533333333333333,-2.04333698577484
0.51,0.00477018471703204,0.00666244738014873,-0.225379972590024,0.0054,-1.97595494846405
0.52,0.00483682708151804,0.00666303185181341,-0.218643287729124,0.00546666666666667,-1.90857260475761
0.53,0.00490347590124225,0.00666346329229769,-0.211906204207078,0.00553333333333333,-1.84119039963367
0.54,0.00497011890104332,0.00666403768732998,-0.205169428695578,0.0056,-1.77380897409503
0.55,0.00503675506748246,0.00666482365407496,-0.198432816467131,0.00566666666666667,-1.70642858017593
0.56,0.00510339217290726,0.00666561404769451,-0.191696017106016,0.00573333333333333,-1.6390485272029
0.57,0.00517003476743445,0.00666625862033858,-0.184958961140185,0.0058,-1.57166820394934
0.58,0.00523668570474339,0.00666666194997175,-0.178221610864502,0.00586666666666667,-1.50428720969604
0.59,0.00530334614207607,0.00666678344037319,-0.17148396034074,0.00593333333333333,-1.43690535423114
0.6,0.00537001554023709,0.00666663732113664,-0.164746035397579,0.006,-1.3695226578502
0.61,0.00543669166359369,0.00666629264767046,-0.158007893630615,0.00606666666666667,-1.30213935135617
0.62,0.00550337058007572,0.00666587330119762,-0.151269624402349,0.00613333333333333,-1.23475587605935
0.63,0.00557004666117566,0.00666555798875567,-0.144531348842195,0.0062,-1.16737288377747
0.64,0.0056367125819486,0.00666558024319675,-0.137793219846476,0.00626666666666667,-1.09999123683561
0.65,0.00570336157907506,0.00666621776696661,-0.131055107259617,0.00633333333333333,-1.03261157821337
0.66,0.0057700018951931,0.0066672190213549,-0.124316792745054,0.0064,-0.965232820134741
0.67,0.00583664544673199,0.00666810155074027,-0.11757847921766,0.00646666666666667,-0.89785370572065
0.68,0.00590330009613321,0.00666854600174109,-0.11084030514434,0.00653333333333333,-0.83047340568071
0.69,0.00596996963555445,0.00666839755822126,-0.104102340878869,0.0066,-0.763091518091837
0.7,0.00603665378686956,0.00666766594129017,-0.0973645886618937,0.00666666666666667,-0.695708068398248
0.71,0.00610334820166864,0.00666652540930272,-0.0906269826209305,0.00673333333333333,-0.628323509411455
0.72,0.00617004446125796,0.00666531475785933,-0.0838893887703665,0.0068,-0.560938721310268
0.73,0.00623673007665999,0.0066645373198059,-0.0771516050114595,0.00686666666666667,-0.493555011640798
0.74,0.00630338818431597,0.00666487220466176,-0.070413362610884,0.00693333333333333,-0.426174090133852
0.75,0.00637000310384155,0.00666692298393327,-0.0636745847165817,0.007,-0.358796033583451
0.76,0.00643660285287212,0.00666957108771658,-0.0569356529999077,0.00706666666666667,-0.291418667741071
0.77,0.00650321773956102,0.00667161993428631,-0.0501968974322793,0.00713333333333333,-0.224040355742975
0.78,0.00656986670354195,0.00667232176189891,-0.0434585241888219,0.0072,-0.156660077556927
0.79,0.00663655731592894,0.00667137762879269,-0.0367206156483685,0.00726666666666667,-0.0892774299821797
0.8,0.00670328577931636,0.00666893741318781,-0.0299831303934605,0.00733333333333333,-0.0218926266494772
0.81,0.00677003692777896,0.00666559981328626,-0.0232459032103472,0.0074,0.0454935019789349
0.82,0.00683678422687178,0.00666241234727188,-0.0165086450889859,0.00746666666666667,0.112879508609328
0.83,0.00690348977363024,0.00666087135331036,-0.00977094322304167,0.00753333333333333,0.180263329116475
0.84,0.00697011214126712,0.00666260580424735,-0.00303238192374551,0.0076,0.247642913522563
0.85,0.00703668882560847,0.00666611046883444,0.00370649423859261,0.00766666666666667,0.315021079890177
0.86,0.00710327380185994,0.00666928780284526,0.0104452801258463,0.00773333333333333,0.382399699343447
0.87,0.00716989891142161,0.00667090916888219,0.0171837846889891,0.0078,0.44977959822507
0.88,0.00723657770340524,0.00667045225594255,0.0239219293669365,0.00786666666666667,0.517161112039831
0.89,0.00730330543463424,0.00666810107941864,0.0306597480865458,0.00793333333333333,0.584544085454611
0.9,0.00737005906964369,0.00666474598109772,0.0373973872626161,0.008,0.651927872298376
0.91,0.00743679728068032,0.00666198362916203,0.044135105797888,0.00806666666666667,0.719311335562186
0.92,0.00750346131591934,0.0066620833656202,0.0508732690509606,0.00813333333333333,0.786692874537354
0.93,0.00757007270872884,0.00666420726503929,0.0576117096788969,0.0082,0.854073259392217
0.94,0.0076366903542655,0.00666608790028376,0.0643501018917713,0.00826666666666667,0.921453868945411
0.95,0.00770332994346686,0.00666712959593419,0.0710884045167936,0.00833333333333333,0.988834817806391
0.96,0.00776999676605573,0.00666713209438704,0.0778266066951266,0.0084,1.05621612773094
0.97,0.00783668571054026,0.0066662905558546,0.084564727881886,0.00846666666666667,1.12359772762118
0.98,0.00790338126421387,0.00666519555836504,0.0913028178461402,0.00853333333333333,1.19097945352553
0.99,0.00797005751315532,0.00666483309776236,0.0980409566709104,0.0086,1.25836104863878
1,0.00803670370348969,0.00666561086995452,0.1047791695958,0.00866666666666667,1.32574245032056
1.01,0.00810334836339452,0.00666644455168023,0.11151737465998,0.00873333333333333,1.39312390669115
1.02,0.00817000014950848,0.00666700865027786,0.118255566143176,0.0088,1.46050538748077
1.03,0.00823666320936257,0.00666714741817726,0.124993742394651,0.00886666666666667,1.52788687214963
1.04,0.00830333746785892,0.00666686392033808,0.131731904772772,0.00893333333333333,1.59526835368867
1.05,0.00837001862727081,0.00666632003424976,0.138470057645011,0.009,1.66264983861961
1.06,0.00843669816724266,0.00666583644993152,0.145208208387945,0.00906666666666667,1.7300313469949
1.07,0.00850336356892799,0.00666588410400325,0.151946366490434,0.00913333333333333,1.79741291574008
1.08,0.00857001379973893,0.00666649825512337,0.158684513322698,0.0092,1.86479465480136
1.09,0.00863666090373573,0.00666722787220181,0.165422650830575,0.00926666666666667,1.93217646758633
1.1,0.00870331295219327,0.00666777315362698,0.172160793610483,0.00933333333333333,1.99955821614207
1.11,0.00876997482791854,0.00666795275162956,0.178898950603975,0.0094,2.06693981639623
1.12,0.00883664822525065,0.00666770377228245,0.185637125097742,0.00946666666666667,2.13432123815704
1.13,0.0089033316500608,0.0066670817755008,0.192375314723612,0.00953333333333333,2.20170250511329
1.14,0.00897002041975232,0.00666626077504203,0.199113511458552,0.0096,2.26908369483432
1.15,0.00903670666326065,0.00666553323850581,0.205851701624665,0.00966666666666667,2.33646493877008
1.16,0.00910337932105335,0.00666531008733403,0.212589865889192,0.00973333333333333,2.40384642225103
1.17,0.0091700243240085,0.0066661077758078,0.219327945604843,0.0098,2.47122856856191
1.18,0.00923664705321438,0.00666771891056058,0.226065909805749,0.00986666666666667,2.53861150983483
1.19,0.00930326856167555,0.00666937368594022,0.232803862578248,0.00993333333333333,2.60599452275182
1.2,0.0093699043058798,0.00667050738051862,0.239541882759107,0.01,2.67337706294992
1.21,0.00943656368722706,0.00667077650039407,0.246280018287701,0.0100666666666667,2.74075879939194
1.22,0.00950325005202945,0.00667005877919126,0.253018286206016,0.0101333333333333,2.80813961436651
1.23,0.00956996069151124,0.00666845317806128,0.259756672658651,0.0102,2.87551960348804
1.24,0.00963668684180887,0.00666627988568164,0.266495132892812,0.0102666666666667,2.94289907569673
1.25,0.00970341368397095,0.00666408031825621,0.273233591258318,0.0103333333333333,3.01027855325856
1.26,0.00977012034395822,0.00666261711951531,0.2799719412076,0.0104,3.07765877176532
1.27,0.00983677989556044,0.00666287401232667,0.286710045084167,0.0104666666666667,3.14504068127823
1.28,0.00990337831897195,0.00666533468292354,0.293447676843671,0.0105333333333333,3.21242562630947
1.29,0.00996995390210424,0.00666860463195966,0.300185055573647,0.0106,3.27981212738581
1.3,0.0100365443186395,0.00667134103802412,0.306922555510937,0.0106666666666667,3.34719785528992
1.31,0.0101031740881762,0.00667267003119201,0.313660420733745,0.0107333333333333,3.41458129126643
1.32,0.0101698545762293,0.00667218669302445,0.320398765161637,0.0108,3.48196172702186
1.33,0.0102365839942302,0.00666995505656858,0.327137572555543,0.0108666666666667,3.54933926472467
1.34,0.0103033473995266,0.00666650810635753,0.333876696517752,0.0109333333333333,3.61671481700524
1.35,0.0103701166953825,0.00666284777841048,0.340615860491918,0.011,3.68409010695588
1.36,0.0104368506309784,0.00666044496023258,0.347354657763055,0.0110666666666667,3.75146766813082
1.37,0.0105034970599789,0.0066611576018292,0.35409256639106,0.0111333333333333,3.81885074620836
1.38,0.0105700914122421,0.0066636910822468,0.360829766285853,0.0112,3.8862380977769
1.39,0.0106366901398858,0.00666605774465813,0.367566950826895,0.0112666666666667,3.95362550262568
1.4,0.0107033132729397,0.00666758035216419,0.374304517691341,0.0113333333333333,4.02101062848564
1.41,0.01076997019521,0.0066679428284242,0.38104265968377,0.0114,4.08839234694708
1.42,0.0108366596442793,0.00666719025765554,0.387781364736183,0.0114666666666667,4.1557707334597
1.43,0.0109033697115066,0.00666572888463379,0.394520415908007,0.0115333333333333,4.2231470673326
1.44,0.0109700778420271,0.00666432611469269,0.401259391386092,0.0116,4.2905238317343
1.45,0.0110367508347525,0.00666411051372418,0.407997664484712,0.0116666666666667,4.35790471369269
1.46,0.0111033958000398,0.00666484602171028,0.414735399917067,0.0117333333333333,4.42528875567729
1.47,0.0111700470505486,0.00666537110255033,0.421473271413415,0.0118,4.49267200373941
1.48,0.011236702741617,0.00666574648861101,0.428211233483758,0.0118666666666667,4.56005472147678
1.49,0.0113033616192791,0.00666601396364853,0.434949257906711,0.0119333333333333,4.62743707320423
1.5,0.0113700138145027,0.00666730911873043,0.441691475695127,0.012,4.69479675590127
1.51,0.0114365439221531,0.00660828497416403,0.449581559946713,0.0119333333333333,4.8531999000451
1.52,0.0115013182438533,0.00629524858041384,0.458354188502254,0.0118666666666667,4.940258044527
1.53,0.0115614174283911,0.00567233164054822,0.466534157820899,0.0118,4.97887827831337
1.54,0.0116139222632359,0.00479518956023281,0.473393961623963,0.0117333333333333,4.98419090019527
1.55,0.0116567401656883,0.00374751100624798,0.478618476609775,0.0116666666666667,4.96668702170866
1.56,0.0116885954061648,0.00261717904769735,0.482155295980978,0.0116,4.9335163135257
1.57,0.0117090438368864,0.00147553906452078,0.484089283087233,0.0115333333333333,4.88958946791907
1.58,0.0117182446902699,0.000375862208589529,0.484575007165922,0.0114666666666667,4.83828104038953
1.59,0.0117167986263693,-0.000647829789809822,0.483787428611557,0.0114,4.78195882053633
1.6,0.0117056141150699,-0.00157488342871948,0.48192252426636,0.0113333333333333,4.72208573027749
1.61,0.0116856504822458,-0.00239683609094322,0.479137357250256,0.0112666666666667,4.65991199782048
1.62,0.0116579960637617,-0.00311334032986252,0.475593234472833,0.0112,4.59610384942111
1.63,0.0116237243854201,-0.00373010111335785,0.471429093254994,0.0111333333333333,4.53110981149811
1.64,0.0115837370211099,-0.00425346155036752,0.466751753315841,0.0110666666666667,4.46539804309947
1.65,0.0115389270410769,-0.00469318048108542,0.461659648614913,0.011,4.39918192677924
1.66,0.0114901075312558,-0.00506063774289589,0.456233880656776,0.0109333333333333,4.332575648534
1.67,0.0114379407328357,-0.00536493381640629,0.450539593971795,0.0108666666666667,4.26572355811615
1.68,0.0113829997794926,-0.00561454698168816,0.444631145079004,0.0108,4.19873021455351
1.69,0.0113257933868892,-0.00581902262942795,0.438550305458729,0.0107333333333333,4.13161059639499
1.7,0.0112667400833508,-0.00598617333517405,0.43233115904539,0.0106666666666667,4.06439134383824
1.71,0.0112061812956492,-0.00612182862099559,0.42600315165209,0.0106,3.99711831205871
1.72,0.01114441220015,-0.00623098088205172,0.41959190782082,0.0105333333333333,3.92983249542934
1.73,0.011081667244442,-0.00631893250014015,0.413113237146417,0.0104666666666667,3.86252288112711
1.74,0.0110181153168669,-0.00638968258662386,0.406577689775935,0.0104,3.79518277003711
1.75,0.0109539099944533,-0.00644651800852833,0.399996098497461,0.0103333333333333,3.72781588777958
1.76,0.0108891896650683,-0.00649201619462055,0.393379587704369,0.0102666666666667,3.66043635049013
1.77,0.0108240819512335,-0.0065281870753325,0.386739705371498,0.0102,3.59306783505886
1.78,0.0107587277948114,-0.00655814395776817,0.380085907707845,0.0101333333333333,3.52571543920493
1.79,0.0106931405227691,-0.00658267637603121,0.373417423054429,0.0100666666666667,3.45836299725837
1.8,0.0106273150386657,-0.00660195350007788,0.36673300318108,0.01,3.39099956582282
1.81,0.0105612631586442,-0.00661639687918118,0.360032918321624,0.00993333333333333,3.32361963180085
1.82,0.0104950136114318,-0.00662668044193088,0.353318957173894,0.00986666666666667,3.25622311239397
1.83,0.0104286120383395,-0.00663373049623352,0.346594426899719,0.0098,3.18881535510267
1.84,0.0103621209932623,-0.00663872572931235,0.339864153124931,0.00973333333333333,3.12140713772638
1.85,0.0102956199426792,-0.00664309720770744,0.333134479939365,0.00966666666666667,3.05401466836345
1.86,0.0102291647081425,-0.00664801746077926,0.326409147814534,0.0096,2.98664844997566
1.87,0.0101626865512216,-0.00665259751434568,0.319681415903963,0.00953333333333333,2.91928519046065
1.88,0.0100961694380144,-0.00665621054274408,0.31295166570194,0.00946666666666667,2.85191676639908
1.89,0.0100296099119048,-0.00665859495604421,0.306220595214219,0.0094,2.78453978854727
1.9,0.00996301168802968,-0.00665980403006467,0.299488590170691,0.00933333333333333,2.71715413325195
1.91,0.00989638565327906,-0.00666020590637288,0.292755724025384,0.00926666666666667,2.64976294245033
1.92,0.00982974986629597,-0.00666048359228512,0.286021757956461,0.0092,2.58237262367008
1.93,0.0097631292052817,-0.00666161845508042,0.279286169439932,0.00913333333333333,2.51499242367746
1.94,0.00969652986869535,-0.00666378965373322,0.272549291808319,0.00906666666666667,2.44761930335988
1.95,0.00962992710284523,-0.00666593474643747,0.265811967527643,0.009,2.38024592337329
1.96,0.00956330288985502,-0.00666729288425297,0.259074675607302,0.00893333333333333,2.31286937467568
1.97,0.00949664884844114,-0.00666750214664776,0.252337675199417,0.00886666666666667,2.24548828160187
1.98,0.00942996623391275,-0.00666659954149815,0.245601005598834,0.0088,2.17810280186344
1.99,0.00936326593817174,-0.00666502100508869,0.238864486243125,0.00873333333333333,2.11071462654878
2,0.0092965684897127,-0.00666360140211222,0.232127716712584,0.00866666666666667,2.04332698012307
2.01,0.00922990405343712,-0.00666357451770548,0.225390076736286,0.0086,1.97594462037971
2.02,0.00916328174747554,-0.00666528849551538,0.218651529457202,0.00853333333333333,1.90856773974063
2.03,0.00909666562713787,-0.00666726135390295,0.211912853758598,0.00846666666666667,1.84119106282624
2.04,0.00903003317033364,-0.0066685880982735,0.205174382361066,0.0084,1.77381284262098
2.05,0.00896337253916521,-0.00666879239287492,0.198436292551203,0.00833333333333333,1.70643217723828
