time,position,velocity,current,reference,voltage
0,0.007,0,0,0.013,-6.09754008593162
0.01,0.00702672919928831,0.00736387550334356,-0.0860062083800346,0.013,-2.28410945297102
0.02,0.00716801218877707,0.0211876862921121,-0.0855811614832292,0.013,0.334915270694603
0.03,0.00744783301168262,0.0343253973116316,-0.0386092860535271,0.013,2.13317610529878
0.04,0.0078427151906795,0.0439869309971706,0.03028123184083,0.013,3.36750516788686
0.05,0.00831384120243484,0.0495889947669326,0.10631857810082,0.013,4.21458762685634
0.06,0.00882239339463122,0.0515663458478835,0.18104450144112,0.013,4.79594910815423
0.07,0.00933588519901194,0.050748140306452,0.25005590887269,0.013,5.1945830660926
0.08,0.00983079291638406,0.0479685082907762,0.311283585410215,0.013,5.46814702179227
0.09,0.0102912685735051,0.0439908895270636,0.364229467114879,0.013,5.65550917939518
0.1,0.0107084125250758,0.0393870971582348,0.409060375993029,0.013,5.78438695287631
0.11,0.0110784682656436,0.0346103942187473,0.446608634360116,0.013,5.8720874665852
0.12,0.0114008304373366,0.0299425300879945,0.477567174972412,0.013,5.93285218594301
0.13,0.0116779480328349,0.0255744144952708,0.502941955426106,0.013,5.97446908818484
0.14,0.011913783582861,0.0216061034201315,0.523667136670675,0.013,6.0022366061313
0.15,0.0121118902656833,0.0180900723983681,0.540389314619495,0.013,6.02168863152417
0.16,0.0122769473325239,0.0150329667394,0.553838751336619,0.013,6.03526246241988
0.17,0.0124138799013348,0.0124021457695993,0.564648080110401,0.013,6.04427310941641
0.18,0.0125265834835681,0.0101712830450272,0.573294456006825,0.013,6.05040921198039
0.19,0.0126186460752964,0.00830522740099855,0.580182071093468,0.013,6.0548166993018
0.2,0.012693675314342,0.0067503128998145,0.585663376566952,0.013,6.05779387105668
0.21,0.0127545818186448,0.00546344138422755,0.590017024221248,0.013,6.05978531574928
0.22,0.0128037727227787,0.00440908090698657,0.593472142610986,0.013,6.06121490372337
0.23,0.0128434066647409,0.00354773823526753,0.59620872099515,0.013,6.06220062320978
0.24,0.0128752524596171,0.00284603318287679,0.598369471036359,0.013,6.06284654441487
0.25,0.012900775091679,0.00227775016377178,0.600077219630572,0.013,6.06329268794149
0.26,0.0129212095325481,0.00181965065384325,0.601431378833172,0.013,6.06362803091791
0.27,0.0129375089317415,0.00145094395810441,0.602498111811933,0.013,6.06385487063122
0.28,0.0129504635170823,0.0011548836963212,0.603333853807774,0.013,6.0639937417216
0.29,0.0129607593849225,0.000917827191414333,0.603990898872767,0.013,6.06408403059964
0.3,0.0129689641305368,0.000728595887972224,0.604512876443115,0.013,6.06416179406962
0.31,0.0129754766954398,0.000577655795256064,0.604924143967572,0.013,6.06421660788548
0.32,0.0129806231951147,0.000457689442619206,0.605246325492215,0.013,6.06425251511653
0.33,0.0129846938922926,0.000362371941841364,0.605499385123305,0.013,6.06427682270793
0.34,0.0129879287128398,0.000286475770293233,0.60569982077725,0.013,6.06429576657345
0.35,0.0129904854587078,0.000226290596570917,0.605857413702933,0.013,6.06430906744367
0.36,0.0129924970376653,0.000178759742202199,0.605980660564465,0.013,6.06431790236965
0.37,0.0129940838535385,0.000141162090217863,0.606077448935449,0.013,6.06432405914409
0.38,0.0129953446008227,0.000111259044699631,0.606154210979848,0.013,6.06432891529431
0.39,0.0129963386438779,8.76316337175479e-05,0.606214522884104,0.013,6.0643323776321
0.4,0.0129971163915976,6.90930084243789e-05,0.606261492329839,0.013,6.06433465816507
0.41,0.0129977259937226,5.45279564254733e-05,0.606298162705014,0.013,6.06433617961213
0.42,0.012998211502442,4.29275383726881e-05,0.606327364607845,0.013,6.06433746468974
0.43,0.0129985972286043,3.37060592679836e-05,0.606350542038247,0.013,6.06433847677811
0.44,0.0129988986101306,2.64880871090753e-05,0.606368596943481,0.013,6.0643391751074
0.45,0.0129991318065362,2.08894484647993e-05,0.606382509615102,0.013,6.06433961019053
0.46,0.0129993136455843,1.65164700762092e-05,0.606393327251662,0.013,6.06433989831046
0.47,0.0129994605312519,1.29889029976875e-05,0.606402085170247,0.013,6.06434018784622
0.48,0.0129995788600793,1.01485001274013e-05,0.606409145829576,0.013,6.06434043955089
0.49,0.012999671313656,7.92688507161394e-06,0.606414652652651,0.013,6.06434062058297
0.5,0.0129997416614022,6.23266713044354e-06,0.606418826830313,0.013,6.06434072927391
0.51,0.0129997946039921,4.95404394653183e-06,0.60642195320549,0.013,6.06434078329928
0.52,0.0129998357733544,3.95880150504445e-06,0.606424380273201,0.013,6.06434081967864
0.53,0.0129998709485886,3.11185902982124e-06,0.606426468060924,0.013,6.06434088234415
0.54,0.0129999004846672,2.40188506285581e-06,0.60642822602805,0.013,6.06434094768403
0.55,0.0129999238549774,1.83992768753676e-06,0.606429616191679,0.013,6.06434099819156
0.56,0.0129999412603259,1.42053455650981e-06,0.606430647947982,0.013,6.06434102725477
0.57,0.0129999534297372,1.12604771829874e-06,0.606431364145001,0.013,6.06434103483241
0.58,0.012999961620454,9.26603617305454e-07,0.606431841082656,0.013,6.06434102745394
0.59,0.0129999676179365,7.80133093809919e-07,0.606432188512743,0.013,6.06434101821955
0.6,0.0129999736950474,6.33303406033091e-07,0.60643254704131,0.013,6.06434102653375
0.61,0.0129999801101876,4.79512747063268e-07,0.606432930202547,0.013,6.06434105630134
0.62,0.0129999857721019,3.4398665497935e-07,0.60643326904919,0.013,6.0643410902901
0.63,0.0129999902580588,2.36571387847111e-07,0.606433537380488,0.013,6.06434111634445
0.64,0.0129999933494268,1.62325888378523e-07,0.606433721533441,0.013,6.06434112704853
0.65,0.0129999950316738,1.2152178393176e-07,0.606433820382801,0.013,6.06434111972627
0.66,0.0129999954943675,1.09643386511191e-07,0.606433845341072,0.013,6.06434109644135
0.67,0.0129999951311754,1.17387692767395e-07,0.606433820358509,0.013,6.06434106399718
0.68,0.0129999945398647,1.30664383997133e-07,0.606433781923121,0.013,6.06434103393695
0.69,0.012999994522302,1.30595826143392e-07,0.606433779060665,0.013,6.06434102254358
0.7,0.0129999958040278,9.86593376781986e-08,0.606433848864231,0.013,6.06434107080485
0.71,0.0129999977562458,4.61921717888965e-08,0.60643393553897,0.013,6.06434122550827
0.72,0.0129999998300648,-1.09323347620807e-08,0.606434020478344,0.013,6.06434141927966
0.73,0.0130000016362753,-6.08006632425362e-08,0.606434093812612,0.013,6.06434159211552
0.74,0.0130000028944005,-9.48251550493407e-08,0.606434148450617,0.013,6.06434170044447
0.75,0.0130000034326954,-1.07744011708433e-07,0.606434180079788,0.013,6.06434171712735
0.76,0.0130000031881475,-9.76212948748176e-08,0.606434187166141,0.013,6.06434163145717
0.77,0.0130000022064766,-6.58469263325678e-08,0.606434170954278,0.013,6.06434144915911
0.78,0.0130000006421348,-1.71366879948247e-08,0.606434135467387,0.013,6.06434119239052
0.79,0.0129999987583063,4.04677780962082e-08,0.606434087507242,0.013,6.06434089974093
0.8,0.0129999969269078,9.55989697692513e-08,0.606434036654202,0.013,6.06434062623206
0.81,0.0129999956285881,1.33563524723966e-07,0.606433995267214,0.013,6.06434044331779
0.82,0.0129999954527283,1.36342220530943e-07,0.606433978483811,0.013,6.06434043888419
0.83,0.0129999970644705,7.82579828496809e-08,0.606433979919473,0.013,6.06434070263916
0.84,0.0129999999312741,-3.2509936914155e-08,0.606433950560025,0.013,6.06434113276493
0.85,0.0130000025860501,-1.36008306098426e-07,0.606433919493182,0.013,6.06434152401308
0.86,0.0130000040317762,-1.90554698977382e-07,0.606433910609201,0.013,6.0643417386108
0.87,0.0130000037866832,-1.75899553177921e-07,0.606433935929014,0.013,6.06434171013827
0.88,0.0130000018842549,-9.3226169679585e-08,0.606433995604221,0.013,6.06434144352875
0.89,0.0129999988732282,3.48492871854323e-08,0.606434077917096,0.013,6.06434101506852
0.9,0.0129999958175929,1.64277789732296e-07,0.606434159280582,0.013,6.06434057239689
0.91,0.012999994296592,2.29577446923526e-07,0.606434204238294,0.013,6.06434033450621
0.92,0.0129999963687562,1.46333193216751e-07,0.606434172140179,0.013,6.06434054405173
0.93,0.0130000018633474,-7.42075630231635e-08,0.606434090898531,0.013,6.0643410062726
0.94,0.0130000075135087,-3.00636647450586e-07,0.606434009676721,0.013,6.06434145880574
0.95,0.013000010898718,-4.3638563575241e-07,0.606433960261977,0.013,6.06434174116446
0.96,0.0130000107320392,-4.30119119525707e-07,0.60643395949396,0.013,6.06434176882971
0.97,0.0130000068601218,-2.75734706277731e-07,0.606434009264762,0.013,6.06434153324999
0.98,0.0130000002632016,-1.2363019425904e-08,0.606434096518912,0.013,6.06434110184143
0.99,0.0129999930551002,2.75632301702145e-07,0.606434193253371,0.013,6.06434061798772
1,0.0129999884832252,4.58654601868648e-07,0.606434256517535,0.013,6.06434030104015
1.01,0.0129999907749927,3.68366465934487e-07,0.606434232429532,0.013,6.06434042455731
1.02,0.0129999993642772,3.14563830253969e-08,0.606434150841116,0.013,6.06434082233697
1.03,0.0130000086354124,-3.31291725300049e-07,0.6064340677782,0.013,6.06434122184509
1.04,0.0130000146058477,-5.65142924869757e-07,0.606434012902436,0.013,6.06434148777637
1.05,0.0130000151200655,-5.863779790104e-07,0.606434002104353,0.013,6.06434154788719
1.06,0.0130000098495815,-3.82293348547426e-07,0.606434037503355,0.013,6.06434139299568
1.07,0.0130000002929447,-1.12011918050282e-08,0.606434107447718,0.013,6.06434107698164
1.08,0.0129999897757372,3.97570635393811e-07,0.606434186514597,0.013,6.06434071678662
1.09,0.0129999834505745,6.43678579727349e-07,0.606434235510022,0.013,6.06434049241385
1.1,0.0129999873102828,4.94444457751449e-07,0.606434210663233,0.013,6.06434060312628
1.11,0.0129999960888233,1.56276919579086e-07,0.606434160994075,0.013,6.06434081553234
1.12,0.0130000038835773,-1.43622585522427e-07,0.606434118902242,0.013,6.06434099293708
1.13,0.0130000078391128,-2.96293328954501e-07,0.606434094912549,0.013,6.06434109776597
1.14,0.013000006844551,-2.59401535773424e-07,0.606434092813488,0.013,6.06434111710987
1.15,0.0130000015335662,-5.72403846903636e-08,0.606434109657225,0.013,6.064341062725
1.16,0.0129999942843862,2.19269991928638e-07,0.606434135759601,0.013,6.06434097103296
1.17,0.0129999892197918,4.12582508062672e-07,0.606434154700135,0.013,6.06434090312071
1.18,0.0129999913771422,3.30347455626424e-07,0.606434147211428,0.013,6.06434092923178
1.19,0.0129999966357243,1.30598322427621e-07,0.606434132765697,0.013,6.06434097149422
1.2,0.0130000011586313,-4.10430915720164e-08,0.606434121223086,0.013,6.06434100297258
1.21,0.0130000034233592,-1.27255199189303e-07,0.606434113994886,0.013,6.06434102676683
1.22,0.0130000028986725,-1.08072008650494e-07,0.606434111385032,0.013,6.06434104500087
1.23,0.0130000000446041,-8.83123591297122e-10,0.606434112590102,0.013,6.06434105882246
1.24,0.0129999963124557,1.39566256943143e-07,0.606434115699325,0.013,6.0643410684032
1.25,0.0129999941447973,2.21175338498245e-07,0.606434117694571,0.013,6.06434107293866
1.26,0.0129999960674144,1.48908271651098e-07,0.606434116552434,0.013,6.06434106555228
1.27,0.012999999615922,1.60659417235953e-08,0.606434117361666,0.013,6.06434103580992
1.28,0.0130000027660491,-1.01772048902442e-07,0.606434118570271,0.013,6.06434100670429
1.29,0.0130000043959519,-1.62872776720099e-07,0.606434118489604,0.013,6.06434099554083
1.3,0.0130000040175664,-1.49091244077662e-07,0.606434116324724,0.013,6.06434101018084
1.31,0.0130000017766081,-6.58703791786197e-08,0.606434112174393,0.013,6.06434104904151
1.32,0.0129999984525725,5.7758963918335e-08,0.606434107031079,0.013,6.06434110109593
1.33,0.0129999954587347,1.69178005299321e-07,0.606434102780953,0.013,6.06434114587308
1.34,0.0129999948421496,1.92180039195226e-07,0.606434102203892,0.013,6.0643411534578
1.35,0.0129999980330064,7.43464149593523e-08,0.606434111701556,0.013,6.0643410783973
1.36,0.0130000028341885,-1.02342421139973e-07,0.606434129304394,0.013,6.06434094721755
1.37,0.0130000070744645,-2.58323364771565e-07,0.606434145207672,0.013,6.06434082939771
1.38,0.0130000093108405,-3.40730065998008e-07,0.606434152835376,0.013,6.06434077144275
1.39,0.0130000088248915,-3.23246287920185e-07,0.606434148889728,0.013,6.06434079663713
1.4,0.0130000056227618,-2.06105906677277e-07,0.606434133351191,0.013,6.06434090504468
1.41,0.0130000004351641,-1.60929114467838e-08,0.606434109478463,0.013,6.06434107350866
1.42,0.0129999947173805,1.9345859555553e-07,0.606434083808482,0.013,6.06434125565175
1.43,0.0129999906492618,3.42664399075565e-07,0.606434066156422,0.013,6.06434138187604
1.44,0.012999991133139,3.25182174520849e-07,0.60643406968997,0.013,6.06434135896908
1.45,0.0129999975578511,9.2778585316863e-08,0.606434115079516,0.013,6.06434106322092
1.46,0.0130000061631429,-2.17356859504839e-07,0.60643418208472,0.013,6.06434063290583
1.47,0.0130000133985775,-4.78042937543963e-07,0.606434238854466,0.013,6.06434026871918
1.48,0.0130000169351107,-6.05856245421779e-07,0.606434264462485,0.013,6.06434010249266
1.49,0.0130000156650907,-5.61131198781111e-07,0.606434248907365,0.013,6.06434019719422
1.5,0.0130000097022578,-3.47960032286344e-07,0.606434193112542,0.013,6.06434054692812
1.51,0.0130000003817449,-1.41927996234102e-08,0.606434108926308,0.013,6.06434107693489
1.52,0.0129999902600772,3.48562626500164e-07,0.606434019121805,0.013,6.06434164359134
1.53,0.0129999831151725,6.04940554355326e-07,0.606433957397028,0.013,6.06434203441059
1.54,0.0129999839308365,5.7639491259802e-07,0.606433968355171,0.013,6.06434196826093
1.55,0.0129999923404119,2.80523042407625e-07,0.606434072870084,0.013,6.06434133284861
1.56,0.0130000019204253,-5.40474144899745e-08,0.606434205361056,0.013,6.06434053506834
1.57,0.0130000091595537,-3.06929064775324e-07,0.606434305132379,0.013,6.06433993412766
1.58,0.013000011970866,-4.06623994553696e-07,0.60643433582025,0.013,6.06433974511402
1.59,0.0130000096918233,-3.30523769355096e-07,0.606434285392777,0.013,6.06434003899486
1.6,0.0130000030842788,-1.04909434134241e-07,0.606434166149975,0.013,6.06434074261753
1.61,0.0129999943344779,1.95048486729399e-07,0.606434014723769,0.013,6.06434163870937
1.62,0.012999987053058,4.45289989431646e-07,0.606433892077992,0.013,6.06434236587763
1.63,0.0129999862750486,4.7286559074359e-07,0.606433883508387,0.013,6.06434241860954
1.64,0.0129999915979178,2.96628440653833e-07,0.606434009408533,0.013,6.0643416875116
1.65,0.0129999969450483,1.24013826862026e-07,0.606434159843244,0.013,6.06434082117611
1.66,0.013000000882099,-3.37438502196376e-09,0.606434269018663,0.013,6.06434019204475
1.67,0.0130000026205335,-6.28809423694816e-08,0.606434299591188,0.013,6.06434001132721
1.68,0.0130000020163551,-5.07540921832427e-08,0.606434242654972,0.013,6.06434032907898
1.69,0.0129999995701063,1.78544189026704e-08,0.606434117741918,0.013,6.06434103420144
1.7,0.0129999964268693,1.08889344622813e-07,0.606433972821687,0.013,6.06434185444173
1.71,0.0129999943762656,1.69391939080372e-07,0.60643388430169,0.013,6.06434235639289
1.72,0.0129999951401775,1.529989266145e-07,0.606433950551819,0.013,6.06434198622684
1.73,0.0129999955226842,1.76526256860035e-07,0.606434155536964,0.013,6.06434085503954
1.74,0.0129999954021013,2.22695806603277e-07,0.606434381025759,0.013,6.06433961457086
1.75,0.0129999954358919,2.50669101147777e-07,0.606434539325384,0.013,6.06433874288036
1.76,0.0129999960241072,2.35782273896853e-07,0.606434578080513,0.013,6.06433852533061
1.77,0.0129999973093861,1.69546066353596e-07,0.606434480273317,0.013,6.06433905458726
1.78,0.0129999991769558,5.96458281208635e-08,0.606434264223463,0.013,6.06434023061898
1.79,0.0130000012546311,-7.0058483098719e-08,0.606433983588113,0.013,6.06434176069751
1.8,0.0130000029128148,-1.79532301502754e-07,0.606433727361923,0.013,6.06434315939763
1.81,0.0130000032644977,-2.12566453189076e-07,0.606433619877047,0.013,6.06434374859719
1.82,0.0130000011794241,-1.08178132196544e-07,0.60643376195408,0.013,6.06434298134359
1.83,0.0129999973708747,6.93665880460742e-08,0.60643395039207,0.013,6.06434197117719
1.84,0.0129999945048855,2.02827615779403e-07,0.60643409141496,0.013,6.06434121530313
1.85,0.0129999941393895,2.27272270039173e-07,0.606434149594824,0.013,6.06434089762935
1.86,0.0129999965557633,1.3153956757301e-07,0.606434121599662,0.013,6.06434103448942
1.87,0.0130000007588268,-4.17597771595433e-08,0.606434036193405,0.013,6.0643414746426
1.88,0.0130000044768437,-1.9624335198706e-07,0.606433954235915,0.013,6.06434189927376
1.89,0.0130000043030143,-1.87820354409732e-07,0.606433964566403,0.013,6.06434184364508
1.9,0.0130000014395826,-6.85723234937744e-08,0.606434029161078,0.013,6.0643415084948
1.91,0.0129999988464758,3.87611869513334e-08,0.606434084101801,0.013,6.06434122455977
1.92,0.0129999976201283,9.03405416599829e-08,0.606434114516231,0.013,6.06434106588364
1.93,0.0129999981376694,7.11913400438999e-08,0.606434115855512,0.013,6.06434105481513
1.94,0.0130000000569228,-4.79558380786234e-09,0.606434093894265,0.013,6.06434116200801
1.95,0.013000002316407,-9.48641611289182e-08,0.606434064730591,0.013,6.06434130642115
1.96,0.013000003135335,-1.27393088475554e-07,0.606434054786074,0.013,6.06434135531847
1.97,0.0130000011588988,-4.87141090720079e-08,0.6064340797192,0.013,6.06434123217356
1.98,0.0129999981652341,6.95681276908227e-08,0.606434112660613,0.013,6.06434107220642
1.99,0.0129999956946447,1.67126434728222e-07,0.606434139538852,0.013,6.06434094188223
2,0.0129999947035945,2.06532923140592e-07,0.60643415179349,0.013,6.06434088149665
2.01,0.0129999955763933,1.72763287176491e-07,0.606434146062468,0.013,6.06434090681373
2.02,0.0129999981251968,7.31968042326601e-08,0.606434124182094,0.013,6.06434100906586
2.03,0.0130000015900069,-6.23836651460244e-08,0.606434093187043,0.013,6.06434115495376
2.04,0.013000004638671,-1.81791677266488e-07,0.606434065310357,0.013,6.06434128664652
2.05,0.0130000053668826,-2.10437205287513e-07,0.606434057983447,0.013,6.06434132178155
2.06,0.0130000014745537,-5.97971022215994e-08,0.606434083764605,0.013,6.0643412076493
2.07,0.0129999944563346,2.10662931134505e-07,0.60643412398314,0.013,6.06434103636
2.08,0.0129999878020324,4.66949646978292e-07,0.606434161308988,0.013,6.06434087839643
2.09,0.0129999839317956,6.16178196125531e-07,0.606434183930728,0.013,6.06434078149921
2.1,0.0129999841695043,6.07541721924472e-07,0.606434185405764,0.013,6.06434077168161
2.11,0.0129999887427708,4.32311360255812e-07,0.606434164660325,0.013,6.06434085322941
2.12,0.0129999967829391,1.23836239532682e-07,0.606434125989466,0.013,6.06434100870105
2.13,0.0130000063250853,-2.42456519299282e-07,0.606434079057066,0.013,6.06434119892755
2.14,0.0130000143080172,-5.4906180276206e-07,0.606434038895829,0.013,6.06434136301254
2.15,0.0130000165742746,-6.36396504845122e-07,0.606434025907284,0.013,6.06434141833222
2.16,0.0130000089851383,-3.47048699667366e-07,0.606434052541053,0.013,6.06434132590475
2.17,0.0129999956816478,1.58056215978559e-07,0.606434087796877,0.013,6.06434122681781
2.18,0.0129999834870644,6.20746310786931e-07,0.606434118424821,0.013,6.06434114528906
2.19,0.0129999769315892,8.69867348169285e-07,0.606434137008946,0.013,6.06434108979413
2.2,0.0129999782262522,8.21907351653236e-07,0.606434140050586,0.013,6.06434106380469
2.21,0.0129999872629118,4.80996604882399e-07,0.606434127968352,0.013,6.06434106578848
2.22,0.0130000016142554,-6.1092348383649e-08,0.606434105098134,0.013,6.06434108920931
2.23,0.013000016533799,-6.24944704269175e-07,0.606434079693093,0.013,6.06434112252705
2.24,0.0130000249558872,-9.43503398782588e-07,0.606434063923671,0.013,6.06434114919761
2.25,0.0130000191524744,-7.249712892894e-07,0.606434069498969,0.013,6.0643411599467
2.26,0.0130000079300766,-3.03521028801946e-07,0.606434074119108,0.013,6.06434121465028
2.27,0.0129999984919324,5.06381759036862e-08,0.606434076464424,0.013,6.06434126913576
2.28,0.0129999938305152,2.26130332043023e-07,0.606434080741197,0.013,6.06434127887845
2.29,0.0129999949126831,1.87048117175379e-07,0.606434088730123,0.013,6.0643412271713
