time,position,velocity,current,reference,voltage
0,0.007,0,0,0.007,-0
0.01,0.00700003702326593,1.39736845286312e-05,-0.000274416400901845,0.00703141571982779,-0.0213192751011188
0.02,0.00700048593283555,8.79307491518115e-05,-0.000751126188400001,0.00706283019941676,-0.0259928923069969
0.03,0.00700204006049391,0.000234454255265933,-0.00109006575055972,0.00709424219857704,-0.0192358858388539
0.04,0.00700537620981603,0.00044125138495224,-0.00111738440573998,0.00712565047721669,-0.00463114413998914
0.05,0.00701099791370961,0.000687874354599671,-0.000760686994161287,0.00715705379539064,0.0153616567850849
0.06,0.00701919909679746,0.00095405900426673,-6.42580713022052e-06,0.00718845091334967,0.0390486974889212
0.07,0.00703008775739991,0.00122286966456446,0.00112558316253766,0.00721984059158932,0.0652686310956249
0.08,0.00704362320392074,0.00148183562539034,0.00259874510188322,0.00725122159089885,0.0932278302428503
0.09,0.00705966579713413,0.00172275175780058,0.00437130990338035,0.00728259267241012,0.122369643307058
0.1,0.00707800261625608,0.00194092758991453,0.00639860335382541,0.00731395259764657,0.152334227481838
0.11,0.00709840378943693,0.00213418700665314,0.0086417066548641,0.00734530012857203,0.18284255780227
0.12,0.00712061454504885,0.00230248996481084,0.0110634694798124,0.00737663402763966,0.213726729386431
0.13,0.00714437589461934,0.00244734394801673,0.0136307599688805,0.00740795305784079,0.244885886256305
0.14,0.00716947683450423,0.00257013015247462,0.01631823457467,0.00743925598275372,0.27620811554282
0.15,0.00719571590615783,0.00267275325054951,0.0191029336203542,0.00747054156659257,0.307629033789048
0.16,0.00722288883099278,0.00275842572091455,0.0219657464775799,0.00750180857425607,0.339130732910108
0.17,0.00725083189252342,0.00282958855318596,0.0248911731494401,0.0075330557713763,0.370686402008641
0.18,0.00727942304507443,0.00288763121669368,0.0278662141827256,0.00756428192436741,0.402261825870439
0.19,0.00730854667869198,0.00293423117418342,0.0308795109916769,0.00759548580047435,0.43384485048157
0.2,0.00733809071369349,0.00297204811006377,0.0339244553801392,0.00762666616782152,0.465429796934377
0.21,0.00736796890806134,0.00300291854644162,0.0369951630707646,0.00765782179546141,0.497008396028443
0.22,0.00739811817237791,0.00302771600913806,0.0400852070227388,0.00768895145342319,0.52857588596721
0.23,0.0074284962943041,0.00304645321135549,0.0431875988505089,0.00772005391276126,0.560133931263462
0.24,0.00745905116120995,0.00306034294913623,0.0462990806286157,0.00775112794560379,0.591683008486483
0.25,0.00748972718354698,0.003071526030088,0.0494206006218143,0.00778217232520115,0.623203323434891
0.26,0.00752048826106122,0.00308105317481351,0.0525511359440932,0.00781318582597442,0.654686403401983
0.27,0.00755131834529442,0.0030888100130797,0.0556873720635363,0.00784416722356367,0.686137584216201
0.28,0.00758222115801273,0.0030935365789371,0.0588237466176501,0.00787511529487638,0.717575887942338
0.29,0.0076131862378803,0.00309509960626945,0.0619576933505775,0.00790602881813569,0.749009689679823
0.3,0.00764416715344183,0.00309586813597779,0.0650929838580132,0.00793690657292862,0.780410461994713
0.31,0.00767513683312416,0.00309709027223496,0.0682312479960576,0.0079677473402543,0.811761361621481
0.32,0.00770609211701863,0.00309861979152885,0.0713712892960404,0.00799854990257204,0.843064223231431
0.33,0.00773705375688107,0.00309891614266238,0.0745090849645208,0.00802931304384941,0.87433955938385
0.34,0.00776804205407269,0.00309645352115663,0.0776405374934767,0.00806003554961027,0.905609902484221
0.35,0.00779901475482779,0.00309346394414423,0.0807694731359516,0.00809071620698271,0.936847688685267
0.36,0.00782994601397686,0.00309133420889939,0.0838984764262306,0.00812135380474691,0.968031947963069
0.37,0.0078608344349288,0.00309002419791418,0.0870272154429977,0.00815194713338295,0.999161456540317
0.38,0.00789170265023057,0.00308808990322606,0.0901524810876038,0.00818249498511862,1.03025453038858
0.39,0.00792257433007722,0.00308396963492027,0.0932705808958128,0.00821299615397704,1.06133358201629
0.4,0.00795341340632461,0.00307960615239537,0.0963850207079943,0.00824344943582427,1.09237299984038
0.41,0.00798419728338578,0.00307627692642241,0.0994984312982329,0.00827385362841691,1.12335206704782
0.42,0.00801492810321095,0.00307379213952754,0.102610348868415,0.00830420753144948,1.15427125357152
0.43,0.00804563247614799,0.00307050826008785,0.105717234040589,0.00833450994660188,1.18515211053041
0.44,0.00807632699180917,0.00306528523033134,0.108816244420019,0.00836475967758663,1.2160123076572
0.45,0.00810697422962711,0.00306022494493727,0.111911515134199,0.00839495553019615,1.24682169610103
0.46,0.00813755626883859,0.00305635983829093,0.115005270068478,0.00842509631234988,1.27756248870468
0.47,0.00816808105146215,0.00305317193957918,0.118096399019039,0.00845518083414136,1.3082398493976
0.48,0.00819858110381351,0.00304866283433458,0.1211805819412,0.00848520790788517,1.33888109377937
0.49,0.00822905698335812,0.00304262635771451,0.124256864085494,0.00851517634816387,1.36949145011535
0.5,0.0082594716423732,0.00303720611745114,0.127329713967859,0.00854508497187474,1.40003810852958
0.51,0.00828981416668105,0.00303302667795239,0.130400519654753,0.00857493259827652,1.4305090762819
0.52,0.00832010072537102,0.00302907923707372,0.133467118425221,0.00860471804903605,1.46091688230317
0.53,0.00835036543188699,0.00302323763952442,0.1365247816324,0.00863444014827471,1.49129206201105
0.54,0.00838058607686375,0.00301666549024576,0.139575514041505,0.00866409772261493,1.52161954939998
0.55,0.00841073268404513,0.00301113271551241,0.142623174042975,0.00869368960122646,1.55187038715102
0.56,0.00844080427154764,0.00300666888747056,0.145667869009223,0.00872321461587259,1.58204145150113
0.57,0.0084708280101365,0.00300159632427888,0.148705958540865,0.0087526716009563,1.61215557174259
0.58,0.00850082394469353,0.0029945682496915,0.151734136214508,0.00878205939356625,1.64223408290581
0.59,0.00853075375861743,0.00298778597217782,0.154756917359832,0.00881137683352273,1.67224410951782
0.6,0.00856060013088152,0.00298227727185043,0.15777662712973,0.00884062276342339,1.70216714588374
0.61,0.0085903749028724,0.00297729282647612,0.160791656419532,0.008869796028689,1.73201199490561
0.62,0.0086201135653748,0.00297061847678558,0.163797061755607,0.008898895477609,1.76181079437817
0.63,0.00864980182649281,0.00296294685511771,0.166793844544218,0.00892791996138698,1.79155544808762
0.64,0.00867940639846656,0.00295625983502544,0.169786367548597,0.00895686833418601,1.8212134868677
0.65,0.00870892464673157,0.0029506926890094,0.172774987871644,0.0089857394531739,1.85078007210215
0.66,0.00873838403776333,0.00294453853423371,0.175755954181439,0.00901453217856831,1.88027894214635
0.67,0.00876780436390094,0.00293645306661299,0.178725911727105,0.00904324537368175,1.90973193958087
0.68,0.00879714680842094,0.0029286934834857,0.181689593226357,0.00907187790496642,1.93910455429995
0.69,0.00882639522226467,0.00292222746186782,0.184649231049555,0.00910042864205903,1.96837888751793
0.7,0.00885556443695423,0.00291611951062046,0.187602785532444,0.00912889645782536,1.99756681040077
0.71,0.00888468981120681,0.00290813334320089,0.190545144480997,0.0091572802284048,2.02670192517294
0.72,0.00891374798666313,0.00289952986500747,0.193478623605638,0.00918557883325466,2.05576696825466
0.73,0.00894270966058002,0.00289207649865219,0.196407216891906,0.00921379115519451,2.08473185873856
0.74,0.00897157801453918,0.00288555423313688,0.199330494378818,0.00924191608045016,2.1135972697259
0.75,0.0090003866338738,0.00287786236303177,0.202243748781898,0.00926995249869773,2.1423937918732
0.76,0.00902913795764075,0.00286868320614872,0.205145774329939,0.00929789930310744,2.171128681368
0.77,0.00905779398219368,0.00286028727113105,0.20804157188474,0.00932575539038729,2.19976512414164
0.78,0.0090863473042043,0.00285311089949552,0.21093220033028,0.00935351966082666,2.22829340537182
0.79,0.00911482306372521,0.00284557803966838,0.213814150755587,0.00938119101833969,2.25673574447216
0.8,0.00914324541556999,0.00283607562673758,0.216683456276503,0.00940876837050858,2.2851183527213
0.81,0.00917157600349885,0.00282684775288972,0.219544871952919,0.00943625062862666,2.31340655176342
0.82,0.00919979794994725,0.00281892091280754,0.222400810693073,0.00946363670774146,2.34158115555514
0.83,0.00922792762977442,0.0028112595118275,0.2252489825152,0.00949092552669745,2.36965590294407
0.84,0.00925599944226599,0.00280165670487313,0.22808422243174,0.0095181160081788,2.39766509189945
0.85,0.00928398469210287,0.00279172742536233,0.23090973422001,0.00954520707875186,2.42558517904917
0.86,0.00931185769576585,0.00278304101008778,0.233729154487802,0.00957219766890753,2.45338846804176
0.87,0.0093396271818793,0.00277503594739796,0.23654127217004,0.00959908671310355,2.48108117547061
0.88,0.00936732948100855,0.00276540779452804,0.239340782134546,0.00962587314980648,2.5086984332227
0.89,0.00939494986002531,0.00275489844957545,0.242128867577194,0.00965255592153367,2.53623093767836
0.9,0.00942245579052632,0.00274549137036495,0.244910068067406,0.00967913397489498,2.56364478689894
0.91,0.00944984951371231,0.00273702942574301,0.247684100617503,0.00970560626063438,2.59093971556346
0.92,0.00947716544759003,0.00272733794936593,0.250445996564848,0.00973197173367134,2.61814844203111
0.93,0.00950440205997013,0.00271634466447451,0.253195097062267,0.00975822935314215,2.64527455962108
0.94,0.00953152266185303,0.0027062778736926,0.255936447741085,0.00978437808244094,2.67228076473219
0.95,0.00955852419629596,0.00269731247797477,0.25867053395555,0.00981041688926065,2.69916141841738
0.96,0.00958543790180016,0.00268747603080699,0.261392865307944,0.00983634474563378,2.72594588376987
0.97,0.00961227259632343,0.00267606358876372,0.264101372776434,0.00986216062797295,2.7526475900842
0.98,0.00963898975898424,0.00266540425742789,0.26680128083205,0.00988786351711134,2.77922812248079
0.99,0.00966558224620573,0.00265593056935481,0.269493676200591,0.00991345239834288,2.80567763252009
1,0.00969207823098185,0.0026458619593615,0.272174510620551,0.00993892626146237,2.83202240909396
1.01,0.00971849359322304,0.00263406487974036,0.274840770779026,0.0099642841008053,2.858282455595
1.02,0.00974478949771113,0.0026228780924003,0.277497663286703,0.0099895249152876,2.88441960109645
1.03,0.00977095594065038,0.00261291583206786,0.280146703485427,0.0100146477084451,2.9104209970908
1.04,0.00979701881629761,0.00260253894657954,0.282784163665369,0.010039651488473,2.93631072469359
1.05,0.00982299808295676,0.00259036748966577,0.285406490937317,0.0100645352682649,2.96211255241833
1.06,0.00984885526331021,0.00257871320649264,0.288018809434385,0.0100892980654517,2.98778896648244
1.07,0.00987457872808645,0.00256829504197022,0.290622885855012,0.0101139389024406,3.01332536370494
1.08,0.00990019316545624,0.00255754775074369,0.293215155235072,0.0101384568064535,3.03874473176043
1.09,0.00992572009252714,0.0025449968928726,0.295791854865222,0.0101628508095656,3.0640723332466
1.1,0.00995112144341423,0.00253293024827859,0.298358057585274,0.0101871199487434,3.08927104211682
1.11,0.00997638520047708,0.00252209383754138,0.300915600831884,0.0102112632658829,3.11432577355518
1.12,0.0100015360049321,0.00251092342496894,0.303460912179165,0.0102352798078472,3.13925962320367
1.13,0.0100265947166164,0.00249798312526562,0.305990305692697,0.0102591686265044,3.16409737978558
1.14,0.0100515234742636,0.00248555639837436,0.308508873696265,0.0102829287787648,3.18880175381662
1.15,0.010076311105881,0.00247433844536689,0.311018341421333,0.0103065593266183,3.21335847201498
1.16,0.0101009833313862,0.00246269460541029,0.313514959760215,0.0103300593371713,3.23779193770146
1.17,0.0101255581727144,0.00244935991196028,0.315995410348249,0.0103534278826836,3.26212445627898
1.18,0.0101499978921532,0.002436624727767,0.318464854215559,0.0103766640406051,3.2863181788659
1.19,0.010174293389257,0.00242505562867947,0.320924720062131,0.0103997668936121,3.31036095017035
1.2,0.0101984724268601,0.00241288507512695,0.323370929413623,0.0104227355296434,3.33427957402882
1.21,0.0102225478396939,0.00239916481108148,0.3258008642237,0.0104455690419367,3.35809154475583
1.22,0.0102464823880623,0.00238617332075365,0.328219728350777,0.010468266529064,3.38175859779064
1.23,0.0102702702561834,0.0023742711620494,0.330628469120073,0.0104908270949674,3.40527200928763
1.24,0.010293941845896,0.00236151710508942,0.33302257080532,0.0105132498489942,3.42866177326177
1.25,0.0103175022852114,0.00234744003939323,0.33540049745934,0.0105355339059327,3.45193786727307
1.26,0.0103409158680598,0.00233424399062964,0.33776735932924,0.0105576783860464,3.47506255183556
1.27,0.0103641812592962,0.00232200682013748,0.340123437807076,0.0105796824151092,3.4980318491876
1.28,0.0103873313853916,0.00230861589646821,0.342463766629423,0.0106015451244395,3.52087907973081
1.29,0.0104103612903701,0.00229423344548825,0.344788281592736,0.0106232656509352,3.54360390397851
1.3,0.0104332385255321,0.00228088019452546,0.347101743685659,0.0106448431371071,3.56617091299754
1.31,0.0104559674111003,0.00226827562591937,0.349403584841538,0.0106662767311128,3.5885821855043
1.32,0.0104785820499887,0.00225421431256041,0.351688548230164,0.0106875655867909,3.61087329421145
1.33,0.0105010658823892,0.00223959894237489,0.353958334921296,0.0107087088636937,3.63303141866902
1.34,0.0105233919339061,0.00222612358236875,0.356217007186899,0.0107297057271209,3.65502597653157
1.35,0.01054557132974,0.00221307491558987,0.358462965711241,0.0107505553481523,3.67686640405245
1.36,0.0105676360272879,0.00219835698363599,0.360691109844973,0.0107712569036805,3.69858743496444
1.37,0.0105895583877659,0.00218359559169932,0.36290492461195,0.0107918095764436,3.72016350584092
1.38,0.0106113191705274,0.00217000848126038,0.36510739565966,0.0108122125550572,3.74157158834697
1.39,0.0106329374265531,0.00215637663014924,0.367295713031719,0.0108324650340467,3.76282976318798
1.4,0.010654436688308,0.00214110278574295,0.369465819030437,0.0108525662138789,3.78396572400026
1.41,0.010675782519742,0.00212628443798779,0.371622463332014,0.0108725153009937,3.80494467515571
1.42,0.0106969649838789,0.00211255351142711,0.373767258705077,0.0108923115078351,3.82575332178873
1.43,0.0107180112203656,0.00209816795021064,0.375896117209668,0.0109119540528829,3.84641892547409
1.44,0.0107389286294632,0.0020825246293257,0.378007220636282,0.0109314421606831,3.86695361743802
1.45,0.0107596835148937,0.00206772211688704,0.380105497958936,0.0109507750618785,3.88732099087576
1.46,0.0107802760174789,0.00205374944660402,0.3821910240496,0.0109699519932392,3.90751872005549
1.47,0.0108007381543651,0.00203853111427706,0.384258828523803,0.0109889721976929,3.92758056566641
1.48,0.0108210577729702,0.00202270544121262,0.386310031524403,0.0110078349243544,3.94749790013112
1.49,0.0108412083344209,0.00200795020192077,0.388348687742654,0.0110265394285556,3.96724028523747
1.5,0.0108612011046743,0.00199354236533808,0.390373160082676,0.0110450849718747,3.98681762202044
1.51,0.010881065041235,0.00197756296834612,0.392378704348483,0.0110634708221655,4.0062624350706
1.52,0.0109007715430735,0.00196172918096677,0.394369123082128,0.0110816962535859,4.02554686589922
1.53,0.0109203059462738,0.00194697920633677,0.396346769134038,0.0110997605466273,4.04465246598477
1.54,0.0109396912806753,0.00193183236569468,0.39830816643967,0.0111176629881421,4.06360230717726
1.55,0.0109589399080757,0.00191538165913003,0.400250808866798,0.0111354028713728,4.08241346165746
1.56,0.0109780191358205,0.00189966569768008,0.402179488445762,0.0111529794959791,4.10105060578167
1.57,0.010996927704658,0.00188476611796719,0.404094504350589,0.0111703921680659,4.11950993942805
1.58,0.0110156960098313,0.00186870535681867,0.405991089916829,0.0111876402002107,4.13782397722986
1.59,0.0110343122547732,0.00185211228981817,0.407870382574939,0.0112047229114908,4.15598401974775
1.6,0.0110527519003451,0.00183654820449407,0.40973619122726,0.0112216396275101,4.17396142774603
1.61,0.0110710278437136,0.00182118431406715,0.411586610621329,0.0112383896804254,4.19176817145822
1.62,0.0110891649334516,0.00180434994486496,0.413417427855902,0.0112549724089735,4.209433278743
1.63,0.0111071334429389,0.00178786398200719,0.415232790416565,0.0112713871584965,4.22692635147164
1.64,0.0111249238497381,0.00177234212472328,0.417034292420689,0.0112876332809683,4.24423443227298
1.65,0.0111425621670315,0.00175609983535267,0.418817910853323,0.0113037101350197,4.26138474649387
1.66,0.0111600493945972,0.00173895385379912,0.420582853382516,0.0113196170859642,4.27838237130688
1.67,0.0111773572319549,0.00172269715935335,0.42233344523302,0.0113353535058224,4.29519516467434
1.68,0.0111944923195913,0.00170690404524746,0.424068752054164,0.0113509187733476,4.31182826921083
1.69,0.0112114822277064,0.00168974661262783,0.425784240303521,0.0113663122740496,4.32831296226398
1.7,0.0112283028144656,0.00167267871258694,0.427483146879814,0.0113815334002193,4.34462548841479
1.71,0.0112449404812746,0.00165657970637002,0.429167702844067,0.0113965815509528,4.36074843458451
1.72,0.0112614178150811,0.00163998728552888,0.430834423005303,0.0114114561321748,4.37670528117342
1.73,0.0112777409027579,0.00162240084682277,0.432481777541073,0.0114261565566623,4.39250639401687
1.74,0.0112938814510016,0.00160561262218139,0.434114082610819,0.0114406822440677,4.40811979725848
1.75,0.0113098440379397,0.00158933064599655,0.435730724965671,0.0114550326209418,4.42354843756534
1.76,0.0113256554487913,0.00157177906403324,0.437327295990217,0.0114692071207563,4.43882279936106
1.77,0.0113412936578014,0.00155428394977062,0.438906747953695,0.0114832051839262,4.4539211953148
1.78,0.0113567453641672,0.00153770879803484,0.440471279450589,0.0114970262578319,4.46882651772294
1.79,0.011372032584234,0.00152062411697811,0.442017463630055,0.011510669796841,4.48356197091543
1.8,0.0113871594118577,0.00150266207445638,0.44354410191705,0.0115241352623301,4.49813563384286
1.81,0.0114020995530229,0.00148549794184306,0.445055264428893,0.0115374221227056,4.51251729180198
1.82,0.0114168596073574,0.00146870885125265,0.446550011562705,0.011550529853425,4.52671233203777
1.83,0.0114314635569963,0.00145068870550605,0.448024299237934,0.0115634579370175,4.54074883991174
1.84,0.0114458874835694,0.0014329061795874,0.449481495391999,0.0115762058631046,4.55460209965685
1.85,0.011460122553438,0.00141594094829276,0.450923118799074,0.0115887731284199,4.56825992724018
1.86,0.0114741924282121,0.00139824587220423,0.452345407380372,0.0116011592368294,4.58174812774206
1.87,0.0114880928840913,0.00137999536112042,0.453748493882307,0.0116133636993506,4.59506533905713
1.88,0.0115018022661881,0.00136258473081081,0.455135833331682,0.0116253860341723,4.60818568531511
1.89,0.0115153330823794,0.00134520569911935,0.456505527267478,0.0116372257666733,4.62112154762066
1.9,0.0115287013613295,0.00132674336449076,0.457854636775561,0.0116488824294413,4.63389341496355
1.91,0.0115418814700032,0.00130881535166779,0.459187026954453,0.0116603555622911,4.64647281194964
1.92,0.0115548729321912,0.00129146047271392,0.460502889550126,0.0116716447122831,4.65885715612605
1.93,0.0115676996760471,0.00127309084324617,0.461798269193461,0.011682749433741,4.67107394487568
1.94,0.0115803451000849,0.00125470316930534,0.46307537759649,0.0116936692882694,4.68310688144721
1.95,0.0115927969200843,0.00123710278623762,0.464336283626018,0.0117044038447711,4.6949399790183
1.96,0.0116050752343248,0.00121897428412095,0.46557778503961,0.0117149526794643,4.70659519285541
1.97,0.0116171796106973,0.00120025827779624,0.466799476481111,0.011725315375899,4.71807508352904
1.98,0.0116290893517922,0.00118229335016583,0.468004684296985,0.0117354915249737,4.7293548050662
1.99,0.0116408157640831,0.00116434723543895,0.469191679277951,0.0117454807249515,4.74044570375116
